# == pyFAI calibration ==
# SplineFile: None
# PixelSize: 1.000e-04, 1.000e-04 m
# PONI: 1.702e-01, 2.002e-01 m
# Distance Sample to Detector: 0.720588490947 m
# Rotations: -0.122173 0.000000 0.000000 rad
# 
# == Fit2d calibration ==
# Distance Sample-beamCenter: 726.000 mm
# Center: x=2887.000, y=1702.000 pix
# Tilt: 7.000 deg  TiltPlanRot: 0.000 deg
# 
# Wavelength: 7.09e-10
# Polarization factor: None
# Normalization factor: None
# --> C:\winpython\python-2.7.9.amd64\lib\site-packages\pySAXS\saxsdata\OT-2012-10-12-tetradecanol-3600s.TIFF.rgr
#       q_nm^-1              I           sigma 
  2.176365e-02    4.744012e+01   1.096410e+00
  2.571800e-02    2.740403e+02   1.721262e+00
  2.967236e-02    5.009737e+02   1.947331e+00
  3.362671e-02    4.337691e+02   1.597849e+00
  3.758106e-02    3.118105e+02   1.230920e+00
  4.153541e-02    2.353320e+02   9.886775e-01
  4.548976e-02    1.787859e+02   8.032837e-01
  4.944411e-02    1.413863e+02   6.742513e-01
  5.339846e-02    1.171813e+02   5.807749e-01
  5.735281e-02    1.001828e+02   5.211285e-01
  6.130716e-02    8.553264e+01   4.625812e-01
  6.526151e-02    7.415108e+01   4.131765e-01
  6.921586e-02    6.542676e+01   3.731608e-01
  7.317021e-02    5.889173e+01   3.417454e-01
  7.712456e-02    5.222027e+01   3.279977e-01
  8.107891e-02    4.735486e+01   3.296392e-01
  8.503326e-02    4.254487e+01   3.193761e-01
  8.898761e-02    3.951458e+01   3.136554e-01
  9.294196e-02    3.816003e+01   3.180116e-01
  9.689631e-02    3.567826e+01   3.164355e-01
  1.008507e-01    3.287714e+01   3.042499e-01
  1.048050e-01    3.181272e+01   2.996832e-01
  1.087594e-01    3.147622e+01   2.982393e-01
  1.127137e-01    2.953728e+01   2.888285e-01
  1.166681e-01    2.971084e+01   2.928699e-01
  1.206224e-01    2.857747e+01   2.958702e-01
  1.245768e-01    2.742272e+01   3.056738e-01
  1.285311e-01    2.939985e+01   3.314919e-01
  1.324855e-01    2.801722e+01   3.391397e-01
  1.364398e-01    2.869959e+01   3.634540e-01
  1.403942e-01    2.614405e+01   3.644512e-01
  1.443485e-01    2.760102e+01   3.756224e-01
  1.483029e-01    4.329146e+01   4.730500e-01
  1.522572e-01    1.308895e+02   8.238609e-01
  1.562116e-01    3.663518e+02   1.386040e+00
  1.601659e-01    5.126604e+02   1.639533e+00
  1.641203e-01    3.431071e+02   1.346644e+00
  1.680746e-01    1.257507e+02   8.162444e-01
  1.720290e-01    4.430634e+01   4.864815e-01
  1.759833e-01    2.744005e+01   3.830636e-01
  1.799377e-01    2.459023e+01   3.630614e-01
  1.838920e-01    2.377770e+01   3.581052e-01
  1.878464e-01    2.727711e+01   3.838855e-01
  1.918007e-01    2.975506e+01   4.021797e-01
  1.957551e-01    2.623413e+01   3.767101e-01
  1.997094e-01    2.356796e+01   3.592522e-01
  2.036638e-01    2.169428e+01   3.435963e-01
  2.076181e-01    2.171264e+01   3.460245e-01
  2.115725e-01    2.239737e+01   3.495321e-01
  2.155268e-01    2.062967e+01   3.377636e-01
  2.194812e-01    2.087799e+01   3.383270e-01
  2.234355e-01    2.092217e+01   3.409113e-01
  2.273899e-01    2.195834e+01   3.480373e-01
  2.313442e-01    2.134565e+01   3.440500e-01
  2.352986e-01    2.167603e+01   3.468222e-01
  2.392529e-01    2.165202e+01   3.471405e-01
  2.432073e-01    2.194840e+01   3.500072e-01
  2.471616e-01    2.206072e+01   3.499777e-01
  2.511160e-01    2.241490e+01   3.547085e-01
  2.550703e-01    2.115472e+01   3.432263e-01
  2.590247e-01    2.169473e+01   3.497096e-01
  2.629790e-01    2.077160e+01   3.401284e-01
  2.669334e-01    2.068038e+01   3.414287e-01
  2.708877e-01    2.086557e+01   3.418043e-01
  2.748421e-01    1.991943e+01   3.354954e-01
  2.787964e-01    1.964310e+01   3.325029e-01
  2.827508e-01    1.917879e+01   3.286059e-01
  2.867051e-01    1.939486e+01   3.312522e-01
  2.906595e-01    1.890067e+01   3.265523e-01
  2.946138e-01    1.990426e+01   3.362230e-01
  2.985682e-01    2.072921e+01   3.415310e-01
  3.025225e-01    1.992546e+01   3.365862e-01
  3.064769e-01    2.164483e+01   3.499957e-01
  3.104312e-01    2.568894e+01   3.823661e-01
  3.143856e-01    3.228033e+01   4.276360e-01
  3.183399e-01    3.609642e+01   4.531736e-01
  3.222943e-01    3.184954e+01   4.258159e-01
  3.262486e-01    2.532343e+01   3.798608e-01
  3.302030e-01    2.093857e+01   3.456122e-01
  3.341573e-01    1.984376e+01   3.359822e-01
  3.381117e-01    2.067682e+01   3.435479e-01
  3.420660e-01    1.981497e+01   3.366777e-01
  3.460204e-01    1.875621e+01   3.272930e-01
  3.499747e-01    1.886318e+01   3.284309e-01
  3.539291e-01    1.961180e+01   3.347458e-01
  3.578834e-01    2.037609e+01   3.421203e-01
  3.618378e-01    2.128737e+01   3.490036e-01
  3.657921e-01    2.222768e+01   3.565341e-01
  3.697465e-01    2.202873e+01   3.558057e-01
  3.737008e-01    2.208332e+01   3.555000e-01
  3.776552e-01    2.363163e+01   3.694675e-01
  3.816095e-01    2.421702e+01   3.722468e-01
  3.855639e-01    2.547005e+01   3.835580e-01
  3.895182e-01    2.829389e+01   4.023970e-01
  3.934726e-01    2.934781e+01   4.119777e-01
  3.974269e-01    3.011825e+01   4.160699e-01
  4.013813e-01    2.866179e+01   4.061038e-01
  4.053356e-01    2.841579e+01   4.050813e-01
  4.092900e-01    2.768820e+01   3.993184e-01
  4.132443e-01    2.572189e+01   3.863001e-01
  4.171987e-01    2.630381e+01   3.882094e-01
  4.211530e-01    2.595409e+01   3.882958e-01
  4.251074e-01    2.462074e+01   3.763575e-01
  4.290617e-01    2.528197e+01   3.832293e-01
  4.330161e-01    2.298411e+01   3.642050e-01
  4.369704e-01    2.202362e+01   3.569944e-01
  4.409248e-01    2.101732e+01   3.490735e-01
  4.448791e-01    2.168743e+01   3.543929e-01
  4.488335e-01    2.071312e+01   3.468782e-01
  4.527878e-01    2.081210e+01   3.467022e-01
  4.567422e-01    2.122071e+01   3.510766e-01
  4.606965e-01    2.122291e+01   3.510557e-01
  4.646509e-01    2.234877e+01   3.602540e-01
  4.686052e-01    2.697988e+01   3.956844e-01
  4.725596e-01    3.951553e+01   4.789884e-01
  4.765139e-01    4.576976e+01   5.162254e-01
  4.804683e-01    4.243107e+01   4.968175e-01
  4.844226e-01    2.899777e+01   4.110338e-01
  4.883770e-01    2.207304e+01   3.591469e-01
  4.923313e-01    2.108843e+01   3.498500e-01
  4.962857e-01    2.013085e+01   3.434914e-01
  5.002400e-01    1.944685e+01   3.359120e-01
  5.041944e-01    1.969989e+01   3.404248e-01
  5.081487e-01    1.848472e+01   3.277289e-01
  5.121031e-01    1.794569e+01   3.240179e-01
  5.160574e-01    1.904394e+01   3.333927e-01
  5.200118e-01    1.943271e+01   3.372668e-01
  5.239661e-01    1.847245e+01   3.290941e-01
  5.279205e-01    1.846051e+01   3.278168e-01
  5.318748e-01    1.809723e+01   3.262326e-01
  5.358292e-01    1.835680e+01   3.272190e-01
  5.397836e-01    1.778718e+01   3.233653e-01
  5.437379e-01    1.823498e+01   3.260109e-01
  5.476923e-01    1.755084e+01   3.211447e-01
  5.516466e-01    1.657179e+01   3.116291e-01
  5.556010e-01    1.732027e+01   3.189636e-01
  5.595553e-01    1.673486e+01   3.135230e-01
  5.635097e-01    1.828117e+01   3.271265e-01
  5.674640e-01    1.877999e+01   3.320532e-01
  5.714184e-01    1.763696e+01   3.221859e-01
  5.753727e-01    1.765007e+01   3.218394e-01
  5.793271e-01    1.816887e+01   3.268816e-01
  5.832814e-01    1.781694e+01   3.232787e-01
  5.872358e-01    1.763352e+01   3.227532e-01
  5.911901e-01    1.805455e+01   3.265237e-01
  5.951445e-01    1.852372e+01   3.298656e-01
  5.990988e-01    1.827870e+01   3.304238e-01
  6.030532e-01    1.796716e+01   3.278007e-01
  6.070075e-01    1.803479e+01   3.306587e-01
  6.109619e-01    1.905575e+01   3.410471e-01
  6.149162e-01    1.851625e+01   3.381663e-01
  6.188706e-01    1.943669e+01   3.474416e-01
  6.228249e-01    1.916751e+01   3.461952e-01
  6.267793e-01    2.066255e+01   3.626270e-01
  6.307336e-01    2.442638e+01   3.945841e-01
  6.346880e-01    2.615368e+01   4.112765e-01
  6.386423e-01    2.358319e+01   3.919228e-01
  6.425967e-01    2.062071e+01   3.287014e-01
  6.465510e-01    1.971215e+01   1.613878e-01
  6.505054e-01    1.976199e+01   1.282127e-01
  6.544597e-01    1.946012e+01   1.182308e-01
  6.584141e-01    1.948534e+01   1.130878e-01
  6.623684e-01    1.877991e+01   1.070427e-01
  6.663228e-01    1.875103e+01   1.037089e-01
  6.702771e-01    1.874455e+01   1.009549e-01
  6.742315e-01    1.875217e+01   1.011638e-01
  6.781858e-01    1.820004e+01   1.069871e-01
  6.821402e-01    1.749335e+01   1.083610e-01
  6.860945e-01    1.700528e+01   1.091340e-01
  6.900489e-01    1.619081e+01   1.081053e-01
  6.940032e-01    1.558227e+01   1.073836e-01
  6.979576e-01    1.522485e+01   1.071246e-01
  7.019119e-01    1.503325e+01   1.072624e-01
  7.058663e-01    1.484462e+01   1.072769e-01
  7.098206e-01    1.444596e+01   1.074483e-01
  7.137750e-01    1.380078e+01   1.068901e-01
  7.177293e-01    1.358461e+01   1.078888e-01
  7.216837e-01    1.365950e+01   1.100344e-01
  7.256380e-01    1.300712e+01   1.091739e-01
  7.295924e-01    1.211841e+01   1.070022e-01
  7.335467e-01    1.189176e+01   1.068802e-01
  7.375011e-01    1.144555e+01   1.051169e-01
  7.414554e-01    1.069747e+01   1.018349e-01
  7.454098e-01    1.016655e+01   9.907538e-02
  7.493641e-01    1.003309e+01   9.797810e-02
  7.533185e-01    9.992649e+00   9.739241e-02
  7.572728e-01    9.620465e+00   9.515705e-02
  7.612272e-01    9.283865e+00   9.302844e-02
  7.651815e-01    9.420291e+00   9.338722e-02
  7.691359e-01    9.063358e+00   9.130559e-02
  7.730902e-01    8.815072e+00   8.971960e-02
  7.770446e-01    9.004996e+00   9.034191e-02
  7.809989e-01    9.257234e+00   9.127665e-02
  7.849533e-01    1.005933e+01   9.483449e-02
  7.889076e-01    1.072375e+01   9.762080e-02
  7.928620e-01    1.078192e+01   9.762252e-02
  7.968163e-01    1.013167e+01   9.426642e-02
  8.007707e-01    9.379799e+00   9.042690e-02
  8.047250e-01    8.891036e+00   8.780341e-02
  8.086794e-01    8.505485e+00   8.561438e-02
  8.126337e-01    8.070568e+00   8.317904e-02
  8.165881e-01    7.999127e+00   8.259577e-02
  8.205424e-01    7.826576e+00   8.140203e-02
  8.244968e-01    7.748524e+00   8.048489e-02
  8.284511e-01    7.368292e+00   7.792731e-02
  8.324055e-01    7.493583e+00   7.804760e-02
  8.363598e-01    7.612141e+00   7.809809e-02
  8.403142e-01    7.417717e+00   7.663208e-02
  8.442685e-01    7.418272e+00   7.607691e-02
  8.482229e-01    7.425886e+00   7.566982e-02
  8.521772e-01    7.370768e+00   7.495477e-02
  8.561316e-01    7.112175e+00   7.318420e-02
  8.600859e-01    7.059916e+00   7.255787e-02
  8.640403e-01    6.767505e+00   7.063834e-02
  8.679946e-01    6.682021e+00   6.980028e-02
  8.719490e-01    6.793234e+00   7.003038e-02
  8.759033e-01    6.956137e+00   7.048667e-02
  8.798577e-01    6.790564e+00   6.932155e-02
  8.838120e-01    6.683323e+00   6.846372e-02
  8.877664e-01    6.894838e+00   6.919139e-02
  8.917207e-01    6.869062e+00   6.875977e-02
  8.956751e-01    6.769757e+00   6.793288e-02
  8.996294e-01    6.488985e+00   6.620571e-02
  9.035838e-01    6.519936e+00   6.608677e-02
  9.075381e-01    6.360414e+00   6.501339e-02
  9.114925e-01    6.137358e+00   6.359313e-02
  9.154468e-01    6.338490e+00   6.437520e-02
  9.194012e-01    6.138992e+00   6.311113e-02
  9.233555e-01    5.953392e+00   6.185521e-02
  9.273099e-01    5.826206e+00   6.095820e-02
  9.312642e-01    5.927007e+00   6.127099e-02
  9.352186e-01    5.894693e+00   6.086939e-02
  9.391729e-01    6.218966e+00   6.227167e-02
  9.431273e-01    6.400406e+00   6.297814e-02
  9.470816e-01    6.433081e+00   6.290283e-02
  9.510360e-01    6.227279e+00   6.163780e-02
  9.549903e-01    6.008377e+00   6.032910e-02
  9.589447e-01    5.663622e+00   5.838350e-02
  9.628990e-01    5.409307e+00   5.685527e-02
  9.668534e-01    5.252328e+00   5.583533e-02
  9.708077e-01    5.093615e+00   5.482147e-02
  9.747621e-01    5.161587e+00   5.499566e-02
  9.787164e-01    5.076244e+00   5.434954e-02
  9.826708e-01    4.950941e+00   5.351272e-02
  9.866251e-01    4.773226e+00   5.235819e-02
  9.905795e-01    4.676253e+00   5.165952e-02
  9.945338e-01    4.646507e+00   5.131705e-02
  9.984882e-01    4.439338e+00   5.003832e-02
  1.002443e+00    4.444491e+00   4.989860e-02
  1.006397e+00    4.423328e+00   4.963137e-02
  1.010351e+00    4.506488e+00   4.993473e-02
  1.014306e+00    4.491303e+00   4.972053e-02
  1.018260e+00    4.440382e+00   4.926513e-02
  1.022214e+00    4.486424e+00   4.932381e-02
  1.026169e+00    4.239822e+00   4.776453e-02
  1.030123e+00    4.260234e+00   4.767851e-02
  1.034077e+00    4.071741e+00   4.640409e-02
  1.038032e+00    3.989890e+00   4.573593e-02
  1.041986e+00    3.837474e+00   4.468752e-02
  1.045940e+00    3.872267e+00   4.471603e-02
  1.049895e+00    3.950985e+00   4.497648e-02
  1.053849e+00    3.929584e+00   4.466685e-02
  1.057803e+00    3.736947e+00   4.341287e-02
  1.061758e+00    3.793566e+00   4.356352e-02
  1.065712e+00    3.746128e+00   4.312734e-02
  1.069666e+00    3.824060e+00   4.340030e-02
  1.073621e+00    3.834093e+00   4.331909e-02
  1.077575e+00    3.641188e+00   4.205243e-02
  1.081530e+00    3.426512e+00   4.064352e-02
  1.085484e+00    3.260618e+00   3.950701e-02
  1.089438e+00    3.318244e+00   3.973105e-02
  1.093393e+00    3.228649e+00   3.904829e-02
  1.097347e+00    3.377500e+00   3.979036e-02
  1.101301e+00    3.397351e+00   3.977204e-02
  1.105256e+00    3.487466e+00   4.017274e-02
  1.109210e+00    3.570399e+00   4.050672e-02
  1.113164e+00    3.610299e+00   4.059252e-02
  1.117119e+00    3.462922e+00   3.962828e-02
  1.121073e+00    3.332410e+00   3.875706e-02
  1.125027e+00    3.230512e+00   3.802890e-02
  1.128982e+00    2.951215e+00   3.623656e-02
  1.132936e+00    2.911601e+00   3.587349e-02
  1.136890e+00    2.845986e+00   3.536716e-02
  1.140845e+00    2.894506e+00   3.555444e-02
  1.144799e+00    2.727030e+00   3.440191e-02
  1.148754e+00    2.732303e+00   3.432685e-02
  1.152708e+00    2.685851e+00   3.392396e-02
  1.156662e+00    2.610331e+00   3.329685e-02
  1.160617e+00    2.697635e+00   3.370344e-02
  1.164571e+00    2.711601e+00   3.365684e-02
  1.168525e+00    2.683531e+00   3.333334e-02
  1.172480e+00    2.746475e+00   3.358216e-02
  1.176434e+00    2.678891e+00   3.303840e-02
  1.180388e+00    2.627439e+00   3.258778e-02
  1.184343e+00    2.706526e+00   3.294223e-02
  1.188297e+00    2.762686e+00   3.314944e-02
  1.192251e+00    2.636570e+00   3.226101e-02
  1.196206e+00    2.656104e+00   3.226187e-02
  1.200160e+00    2.678084e+00   3.226893e-02
  1.204114e+00    2.599046e+00   3.166581e-02
  1.208069e+00    2.532520e+00   3.115086e-02
  1.212023e+00    2.638335e+00   3.167483e-02
  1.215977e+00    2.679141e+00   3.180678e-02
  1.219932e+00    2.773554e+00   3.224907e-02
  1.223886e+00    2.639453e+00   3.134633e-02
  1.227841e+00    2.560042e+00   3.076040e-02
  1.231795e+00    2.581543e+00   3.078985e-02
  1.235749e+00    2.681428e+00   3.127103e-02
  1.239704e+00    2.653841e+00   3.100323e-02
  1.243658e+00    2.647586e+00   3.086290e-02
  1.247612e+00    2.652476e+00   3.079268e-02
  1.251567e+00    2.503536e+00   2.981109e-02
  1.255521e+00    2.590525e+00   3.022796e-02
  1.259475e+00    2.635371e+00   3.039209e-02
  1.263430e+00    2.626952e+00   3.024743e-02
  1.267384e+00    2.570067e+00   2.982387e-02
  1.271338e+00    2.642337e+00   3.014829e-02
  1.275293e+00    2.752347e+00   3.066658e-02
  1.279247e+00    2.678683e+00   3.016375e-02
  1.283201e+00    2.453545e+00   2.877972e-02
  1.287156e+00    2.296953e+00   2.775909e-02
  1.291110e+00    2.204430e+00   2.711834e-02
  1.295064e+00    2.039235e+00   2.600299e-02
  1.299019e+00    1.980372e+00   2.554727e-02
  1.302973e+00    2.001546e+00   2.561379e-02
  1.306928e+00    1.977201e+00   2.537641e-02
  1.310882e+00    1.870054e+00   2.461231e-02
  1.314836e+00    1.803049e+00   2.409952e-02
  1.318791e+00    1.826095e+00   2.418510e-02
  1.322745e+00    1.733881e+00   2.349644e-02
  1.326699e+00    1.701221e+00   2.320958e-02
  1.330654e+00    1.665490e+00   2.289576e-02
  1.334608e+00    2.023054e+00   2.513635e-02
  1.338562e+00    2.329358e+00   2.679219e-02
  1.342517e+00    2.678096e+00   2.848091e-02
  1.346471e+00    2.905479e+00   2.944987e-02
  1.350425e+00    3.255185e+00   3.090413e-02
  1.354380e+00    3.574382e+00   3.215914e-02
  1.358334e+00    3.670912e+00   3.243835e-02
  1.362288e+00    3.828233e+00   3.295345e-02
  1.366243e+00    4.147645e+00   3.410324e-02
  1.370197e+00    4.418088e+00   3.502378e-02
  1.374151e+00    4.732466e+00   3.607434e-02
  1.378106e+00    5.003227e+00   3.689929e-02
  1.382060e+00    5.306788e+00   3.780838e-02
  1.386015e+00    5.444210e+00   3.815992e-02
  1.389969e+00    5.454548e+00   3.805973e-02
  1.393923e+00    5.648128e+00   3.860492e-02
  1.397878e+00    5.684425e+00   3.859063e-02
  1.401832e+00    5.868330e+00   3.905116e-02
  1.405786e+00    6.365155e+00   4.053727e-02
  1.409741e+00    6.897038e+00   4.203839e-02
  1.413695e+00    7.224695e+00   4.288574e-02
  1.417649e+00    8.103653e+00   4.532696e-02
  1.421604e+00    9.309089e+00   4.845701e-02
  1.425558e+00    8.980448e+00   4.746921e-02
  1.429512e+00    8.190805e+00   4.518474e-02
  1.433467e+00    7.671183e+00   4.360933e-02
  1.437421e+00    7.429150e+00   4.280447e-02
  1.441375e+00    7.526604e+00   4.297638e-02
  1.445330e+00    7.461755e+00   4.270007e-02
  1.449284e+00    7.475776e+00   4.264588e-02
  1.453238e+00    7.661909e+00   4.307145e-02
  1.457193e+00    7.682366e+00   4.303124e-02
  1.461147e+00    7.448076e+00   4.226319e-02
  1.465102e+00    7.241895e+00   4.158783e-02
  1.469056e+00    6.999283e+00   4.094185e-02
  1.473010e+00    6.525358e+00   3.962487e-02
  1.476965e+00    5.805590e+00   3.742065e-02
  1.480919e+00    4.842824e+00   3.428256e-02
  1.484873e+00    3.005885e+00   2.709695e-02
  1.488828e+00    2.876390e+00   2.639981e-02
  1.492782e+00    3.192658e+00   2.772388e-02
  1.496736e+00    4.390438e+00   3.240665e-02
  1.500691e+00    7.540353e+00   4.233998e-02
  1.504645e+00    1.312868e+01   5.569108e-02
  1.508599e+00    2.029064e+01   6.899499e-02
  1.512554e+00    2.656379e+01   7.868767e-02
  1.516508e+00    2.936022e+01   8.243676e-02
  1.520462e+00    2.590825e+01   7.717891e-02
  1.524417e+00    1.912395e+01   6.610630e-02
  1.528371e+00    1.266180e+01   5.361589e-02
  1.532325e+00    7.351920e+00   4.073189e-02
  1.536280e+00    4.640994e+00   3.227191e-02
  1.540234e+00    3.739817e+00   2.888452e-02
  1.544189e+00    3.685604e+00   2.859070e-02
  1.548143e+00    3.584088e+00   2.811256e-02
  1.552097e+00    3.636679e+00   2.823200e-02
  1.556052e+00    3.190861e+00   2.636531e-02
  1.560006e+00    3.058925e+00   2.573758e-02
  1.563960e+00    3.268630e+00   2.652926e-02
  1.567915e+00    3.593879e+00   2.774213e-02
  1.571869e+00    3.860729e+00   2.867276e-02
  1.575823e+00    3.990643e+00   2.906677e-02
  1.579778e+00    3.843389e+00   2.844566e-02
  1.583732e+00    3.573063e+00   2.735102e-02
  1.587686e+00    3.176392e+00   2.571834e-02
  1.591641e+00    2.898983e+00   2.450484e-02
  1.595595e+00    2.603776e+00   2.316001e-02
  1.599549e+00    2.346895e+00   2.192144e-02
  1.603504e+00    2.200986e+00   2.117410e-02
  1.607458e+00    2.009842e+00   2.017961e-02
  1.611412e+00    1.963752e+00   1.989637e-02
  1.615367e+00    1.889629e+00   1.946763e-02
  1.619321e+00    1.890700e+00   1.942237e-02
  1.623276e+00    1.730325e+00   1.853232e-02
  1.627230e+00    1.657705e+00   1.809201e-02
  1.631184e+00    1.644608e+00   1.797586e-02
  1.635139e+00    1.677460e+00   1.810469e-02
  1.639093e+00    1.736548e+00   1.836640e-02
  1.643047e+00    1.745865e+00   1.836268e-02
  1.647002e+00    1.770282e+00   1.843509e-02
  1.650956e+00    1.685995e+00   1.793792e-02
  1.654910e+00    1.710036e+00   1.801532e-02
  1.658865e+00    1.671176e+00   1.776068e-02
  1.662819e+00    1.810860e+00   1.843512e-02
  1.666773e+00    1.817717e+00   1.841945e-02
  1.670728e+00    1.783345e+00   1.819031e-02
  1.674682e+00    1.794567e+00   1.819887e-02
  1.678636e+00    1.811042e+00   1.823315e-02
  1.682591e+00    1.879674e+00   1.852538e-02
  1.686545e+00    1.910770e+00   1.862963e-02
  1.690500e+00    2.094551e+00   1.945302e-02
  1.694454e+00    2.830400e+00   2.255309e-02
  1.698408e+00    4.473838e+00   2.828610e-02
  1.702363e+00    6.420099e+00   3.379853e-02
  1.706317e+00    8.311427e+00   3.834902e-02
  1.710271e+00    1.061854e+01   4.321993e-02
  1.714226e+00    1.094759e+01   4.376687e-02
  1.718180e+00    8.313773e+00   3.804214e-02
  1.722134e+00    6.279632e+00   3.297251e-02
  1.726089e+00    4.579367e+00   2.808868e-02
  1.730043e+00    2.699627e+00   2.151543e-02
  1.733997e+00    1.804089e+00   1.754465e-02
  1.737952e+00    1.551196e+00   1.623080e-02
  1.741906e+00    1.511400e+00   1.598188e-02
  1.745860e+00    1.462544e+00   1.568243e-02
  1.749815e+00    1.429648e+00   1.546422e-02
  1.753769e+00    1.405290e+00   1.528848e-02
  1.757723e+00    1.336969e+00   1.487102e-02
  1.761678e+00    1.348466e+00   1.489329e-02
  1.765632e+00    1.287605e+00   1.451374e-02
  1.769587e+00    1.241312e+00   1.421282e-02
  1.773541e+00    1.177625e+00   1.380694e-02
  1.777495e+00    1.150462e+00   1.361307e-02
  1.781450e+00    1.176760e+00   1.373186e-02
  1.785404e+00    1.196277e+00   1.380843e-02
  1.789358e+00    1.190382e+00   1.373900e-02
  1.793313e+00    1.141609e+00   1.341977e-02
  1.797267e+00    1.130102e+00   1.331751e-02
  1.801221e+00    1.083698e+00   1.300808e-02
  1.805176e+00    1.079265e+00   1.294928e-02
  1.809130e+00    1.057465e+00   1.278703e-02
  1.813084e+00    1.062768e+00   1.278576e-02
  1.817039e+00    9.972440e-01   1.235553e-02
  1.820993e+00    9.975267e-01   1.232770e-02
  1.824947e+00    9.831644e-01   1.220761e-02
  1.828902e+00    9.524983e-01   1.198624e-02
  1.832856e+00    9.123255e-01   1.170214e-02
  1.836810e+00    8.909897e-01   1.153759e-02
  1.840765e+00    9.427412e-01   1.184086e-02
  1.844719e+00    9.358109e-01   1.176974e-02
  1.848674e+00    9.179549e-01   1.162883e-02
  1.852628e+00    9.184839e-01   1.160410e-02
  1.856582e+00    9.096373e-01   1.152165e-02
  1.860537e+00    8.864943e-01   1.134717e-02
  1.864491e+00    8.480150e-01   1.107198e-02
  1.868445e+00    8.051112e-01   1.076547e-02
  1.872400e+00    7.936897e-01   1.066410e-02
  1.876354e+00    7.734866e-01   1.050352e-02
  1.880308e+00    7.800958e-01   1.052475e-02
  1.884263e+00    7.863814e-01   1.054222e-02
  1.888217e+00    7.654287e-01   1.037797e-02
  1.892171e+00    7.561721e-01   1.029225e-02
  1.896126e+00    7.497884e-01   1.022652e-02
  1.900080e+00    6.863886e-01   9.763269e-03
  1.904034e+00    6.318939e-01   9.348188e-03
  1.907989e+00    6.552752e-01   9.497815e-03
  1.911943e+00    6.392503e-01   9.360409e-03
  1.915897e+00    5.946437e-01   9.008970e-03
  1.919852e+00    5.803855e-01   8.881244e-03
  1.923806e+00    5.746027e-01   8.815980e-03
  1.927761e+00    5.736418e-01   8.785096e-03
  1.931715e+00    5.904839e-01   8.889976e-03
  1.935669e+00    5.845758e-01   8.824420e-03
  1.939624e+00    6.156330e-01   9.032022e-03
  1.943578e+00    5.999436e-01   8.894073e-03
  1.947532e+00    5.688400e-01   8.637664e-03
  1.951487e+00    6.015723e-01   8.860007e-03
  1.955441e+00    5.678878e-01   8.587680e-03
  1.959395e+00    5.682968e-01   8.568784e-03
  1.963350e+00    5.681015e-01   8.546750e-03
  1.967304e+00    5.965611e-01   8.737137e-03
  1.971258e+00    5.881660e-01   8.654576e-03
  1.975213e+00    5.839199e-01   8.602530e-03
  1.979167e+00    5.658607e-01   8.448454e-03
  1.983121e+00    5.768766e-01   8.508919e-03
  1.987076e+00    6.045976e-01   8.691399e-03
  1.991030e+00    6.148119e-01   8.743414e-03
  1.994984e+00    5.919101e-01   8.558556e-03
  1.998939e+00    5.811657e-01   8.461394e-03
  2.002893e+00    5.797976e-01   8.429312e-03
  2.006848e+00    6.033204e-01   8.576410e-03
  2.010802e+00    6.040711e-01   8.559170e-03
  2.014756e+00    6.261280e-01   8.691482e-03
  2.018711e+00    6.322948e-01   8.710656e-03
  2.022665e+00    6.443368e-01   8.771782e-03
  2.026619e+00    6.532437e-01   8.808968e-03
  2.030574e+00    6.439175e-01   8.723949e-03
  2.034528e+00    6.530982e-01   8.805292e-03
  2.038482e+00    7.223710e-01   9.597429e-03
  2.042437e+00    7.854462e-01   1.022897e-02
  2.046391e+00    7.622027e-01   1.023617e-02
  2.050345e+00    8.264015e-01   1.079742e-02
  2.054300e+00    8.342346e-01   1.097185e-02
  2.058254e+00    8.478639e-01   1.117306e-02
  2.062208e+00    8.835956e-01   1.151236e-02
  2.066163e+00    8.745931e-01   1.155325e-02
  2.070117e+00    9.588431e-01   1.219292e-02
  2.074071e+00    9.866938e-01   1.246322e-02
  2.078026e+00    1.001735e+00   1.264941e-02
  2.081980e+00    9.517162e-01   1.241353e-02
  2.085935e+00    9.997072e-01   1.280711e-02
  2.089889e+00    1.122920e+00   1.427283e-02
  2.093843e+00    1.298444e+00   1.618701e-02
  2.097798e+00    1.382547e+00   1.737047e-02
  2.101752e+00    1.574430e+00   1.920328e-02
  2.105706e+00    1.773991e+00   2.107931e-02
  2.109661e+00    1.956928e+00   2.286730e-02
  2.113615e+00    2.292914e+00   2.556703e-02
  2.117569e+00    2.537077e+00   2.777223e-02
  2.121524e+00    2.433223e+00   2.797554e-02
  2.125478e+00    2.436484e+00   2.869930e-02
  2.129432e+00    2.396253e+00   2.916204e-02
  2.133387e+00    2.525190e+00   3.067089e-02
  2.137341e+00    2.392385e+00   3.061128e-02
  2.141295e+00    2.477626e+00   3.192889e-02
  2.145250e+00    2.586562e+00   3.344823e-02
  2.149204e+00    2.665845e+00   3.485104e-02
  2.153158e+00    2.735804e+00   3.622812e-02
  2.157113e+00    2.930437e+00   3.850639e-02
  2.161067e+00    3.184387e+00   4.126128e-02
  2.165022e+00    3.134699e+00   4.209249e-02
  2.168976e+00    3.207545e+00   4.374281e-02
  2.172930e+00    3.392005e+00   4.572364e-02
  2.176885e+00    3.543504e+00   4.738901e-02
  2.180839e+00    3.391250e+00   4.700833e-02
  2.184793e+00    3.444184e+00   4.806357e-02
  2.188748e+00    3.296477e+00   4.770294e-02
  2.192702e+00    3.537316e+00   5.009121e-02
  2.196656e+00    3.734525e+00   5.222593e-02
  2.200611e+00    3.808546e+00   5.352260e-02
  2.204565e+00    3.870101e+00   5.469798e-02
  2.208519e+00    3.946084e+00   5.602824e-02
  2.212474e+00    3.800272e+00   5.583459e-02
  2.216428e+00    3.906268e+00   5.742555e-02
  2.220382e+00    4.101964e+00   5.970790e-02
  2.224337e+00    4.103084e+00   6.065512e-02
  2.228291e+00    4.147318e+00   6.191999e-02
  2.232245e+00    4.058336e+00   6.215863e-02
  2.236200e+00    3.961485e+00   6.243242e-02
  2.240154e+00    4.262284e+00   6.578775e-02
  2.244109e+00    3.954466e+00   6.433950e-02
  2.248063e+00    4.040682e+00   6.611825e-02
  2.252017e+00    4.231510e+00   6.850585e-02
  2.255972e+00    4.391984e+00   7.043535e-02
  2.259926e+00    4.629205e+00   7.300551e-02
  2.263880e+00    4.862272e+00   7.548805e-02
  2.267835e+00    4.871206e+00   7.631131e-02
  2.271789e+00    5.468633e+00   8.198803e-02
  2.275743e+00    5.408169e+00   8.228234e-02
  2.279698e+00    5.701269e+00   8.525176e-02
  2.283652e+00    6.039537e+00   8.862699e-02
  2.287606e+00    6.236770e+00   9.090589e-02
  2.291561e+00    6.134610e+00   9.123673e-02
  2.295515e+00    6.356088e+00   9.401571e-02
  2.299469e+00    6.388623e+00   9.515146e-02
  2.303424e+00    6.777113e+00   9.893528e-02
  2.307378e+00    7.059633e+00   1.017275e-01
  2.311333e+00    6.985254e+00   1.015127e-01
  2.315287e+00    7.675630e+00   1.072517e-01
  2.319241e+00    7.790149e+00   1.084501e-01
  2.323196e+00    7.894642e+00   1.094894e-01
  2.327150e+00    8.171811e+00   1.117161e-01
  2.331104e+00    8.394415e+00   1.138409e-01
  2.335059e+00    9.056754e+00   1.189299e-01
  2.339013e+00    9.154329e+00   1.205175e-01
  2.342967e+00    9.127009e+00   1.207112e-01
  2.346922e+00    9.545568e+00   1.237804e-01
  2.350876e+00    9.915122e+00   1.264778e-01
  2.354830e+00    1.020653e+01   1.286587e-01
  2.358785e+00    1.037820e+01   1.303349e-01
  2.362739e+00    1.036615e+01   1.317739e-01
  2.366693e+00    1.091704e+01   1.356123e-01
  2.370648e+00    1.156873e+01   1.399192e-01
  2.374602e+00    1.172742e+01   1.412194e-01
  2.378556e+00    1.192633e+01   1.427345e-01
  2.382511e+00    1.213182e+01   1.442954e-01
  2.386465e+00    1.197192e+01   1.445675e-01
  2.390420e+00    1.243229e+01   1.484796e-01
  2.394374e+00    1.284384e+01   1.512545e-01
  2.398328e+00    1.292977e+01   1.520804e-01
  2.402283e+00    1.309445e+01   1.533754e-01
  2.406237e+00    1.383069e+01   1.579652e-01
  2.410191e+00    1.358422e+01   1.572577e-01
  2.414146e+00    1.395184e+01   1.602772e-01
  2.418100e+00    1.425325e+01   1.630348e-01
  2.422054e+00    1.354106e+01   1.594975e-01
  2.426009e+00    1.384532e+01   1.615845e-01
  2.429963e+00    1.485359e+01   1.677021e-01
  2.433917e+00    1.438591e+01   1.653964e-01
  2.437872e+00    1.469033e+01   1.684091e-01
  2.441826e+00    1.414302e+01   1.656021e-01
  2.445780e+00    1.460698e+01   1.688438e-01
  2.449735e+00    1.450322e+01   1.693547e-01
  2.453689e+00    1.562040e+01   1.760845e-01
  2.457643e+00    1.611701e+01   1.791654e-01
  2.461598e+00    1.692570e+01   1.844828e-01
  2.465552e+00    2.032628e+01   2.032378e-01
  2.469507e+00    2.301757e+01   2.166480e-01
  2.473461e+00    2.502156e+01   2.262570e-01
  2.477415e+00    2.777944e+01   2.393509e-01
  2.481370e+00    3.117069e+01   2.549432e-01
  2.485324e+00    2.843309e+01   2.438872e-01
  2.489278e+00    2.357318e+01   2.232922e-01
  2.493233e+00    2.251062e+01   2.191472e-01
  2.497187e+00    2.195500e+01   2.167570e-01
  2.501141e+00    1.951359e+01   2.046651e-01
  2.505096e+00    1.868045e+01   2.005659e-01
  2.509050e+00    1.806253e+01   1.982175e-01
  2.513004e+00    1.639655e+01   1.897083e-01
  2.516959e+00    1.562046e+01   1.864330e-01
  2.520913e+00    1.612334e+01   1.899779e-01
  2.524867e+00    1.561526e+01   1.872240e-01
  2.528822e+00    1.541483e+01   1.862784e-01
  2.532776e+00    1.598286e+01   1.899442e-01
  2.536730e+00    1.580031e+01   1.891071e-01
  2.540685e+00    1.592084e+01   1.900876e-01
  2.544639e+00    1.548269e+01   1.870237e-01
  2.548594e+00    1.540418e+01   1.847931e-01
  2.552548e+00    1.554644e+01   1.837699e-01
  2.556502e+00    1.532568e+01   1.803486e-01
  2.560457e+00    1.556209e+01   1.800742e-01
  2.564411e+00    1.530036e+01   1.768822e-01
  2.568365e+00    1.526749e+01   1.748624e-01
  2.572320e+00    1.554063e+01   1.745786e-01
  2.576274e+00    1.558886e+01   1.734517e-01
  2.580228e+00    1.519766e+01   1.699003e-01
  2.584183e+00    1.464331e+01   1.652540e-01
  2.588137e+00    1.481457e+01   1.647208e-01
  2.592091e+00    1.490734e+01   1.639713e-01
  2.596046e+00    1.463830e+01   1.613166e-01
  2.600000e+00    1.465982e+01   1.600182e-01
  2.603954e+00    1.456765e+01   1.582831e-01
  2.607909e+00    1.539004e+01   1.616199e-01
  2.611863e+00    1.509714e+01   1.589475e-01
  2.615817e+00    1.573820e+01   1.610618e-01
  2.619772e+00    1.582674e+01   1.603696e-01
  2.623726e+00    1.569118e+01   1.586185e-01
  2.627681e+00    1.533674e+01   1.556331e-01
  2.631635e+00    1.487356e+01   1.524467e-01
  2.635589e+00    1.519341e+01   1.531634e-01
  2.639544e+00    1.524585e+01   1.522890e-01
  2.643498e+00    1.563172e+01   1.533114e-01
  2.647452e+00    1.534586e+01   1.509563e-01
  2.651407e+00    1.468127e+01   1.467992e-01
  2.655361e+00    1.421732e+01   1.435975e-01
  2.659315e+00    1.379731e+01   1.407460e-01
  2.663270e+00    1.337065e+01   1.376567e-01
  2.667224e+00    1.292159e+01   1.346836e-01
  2.671178e+00    1.349126e+01   1.368543e-01
  2.675133e+00    1.295558e+01   1.333662e-01
  2.679087e+00    1.333250e+01   1.345104e-01
  2.683041e+00    1.400455e+01   1.372361e-01
  2.686996e+00    1.379651e+01   1.355340e-01
  2.690950e+00    1.454862e+01   1.384628e-01
  2.694904e+00    1.453598e+01   1.378139e-01
  2.698859e+00    1.328924e+01   1.309980e-01
  2.702813e+00    1.221638e+01   1.249439e-01
  2.706768e+00    1.202776e+01   1.235594e-01
  2.710722e+00    1.195078e+01   1.224896e-01
  2.714676e+00    1.115877e+01   1.178293e-01
  2.718631e+00    1.055925e+01   1.141592e-01
  2.722585e+00    1.085874e+01   1.151583e-01
  2.726539e+00    9.757430e+00   1.087197e-01
  2.730494e+00    9.619838e+00   1.075361e-01
  2.734448e+00    9.328520e+00   1.053450e-01
  2.738402e+00    9.321201e+00   1.049091e-01
  2.742357e+00    8.409742e+00   9.923070e-02
  2.746311e+00    8.034290e+00   9.660069e-02
  2.750265e+00    7.964516e+00   9.585167e-02
  2.754220e+00    7.417113e+00   9.160408e-02
  2.758174e+00    7.203434e+00   8.932943e-02
  2.762128e+00    6.927138e+00   8.675855e-02
  2.766083e+00    7.223046e+00   8.731032e-02
  2.770037e+00    7.138384e+00   8.536697e-02
  2.773991e+00    7.135274e+00   8.403809e-02
  2.777946e+00    7.332907e+00   8.393495e-02
  2.781900e+00    7.298199e+00   8.251450e-02
  2.785855e+00    7.491772e+00   8.242329e-02
  2.789809e+00    7.538442e+00   8.157687e-02
  2.793763e+00    7.650230e+00   8.115516e-02
  2.797718e+00    7.650551e+00   8.010884e-02
  2.801672e+00    7.447646e+00   7.810913e-02
  2.805626e+00    7.384636e+00   7.690373e-02
  2.809581e+00    7.695045e+00   7.760219e-02
  2.813535e+00    7.241729e+00   7.443301e-02
  2.817489e+00    7.263041e+00   7.377340e-02
  2.821444e+00    7.619710e+00   7.481545e-02
  2.825398e+00    7.615984e+00   7.404076e-02
  2.829352e+00    7.940495e+00   7.486938e-02
  2.833307e+00    8.669730e+00   7.749720e-02
  2.837261e+00    9.442421e+00   8.013737e-02
  2.841215e+00    1.039977e+01   8.336401e-02
  2.845170e+00    1.089403e+01   8.456767e-02
  2.849124e+00    1.144380e+01   8.591956e-02
  2.853079e+00    1.097720e+01   8.347733e-02
  2.857033e+00    1.023830e+01   7.998636e-02
  2.860987e+00    9.539743e+00   7.658161e-02
  2.864942e+00    8.900009e+00   7.339012e-02
  2.868896e+00    8.381272e+00   7.069909e-02
  2.872850e+00    7.701321e+00   6.726344e-02
  2.876805e+00    7.107001e+00   6.417059e-02
  2.880759e+00    6.483952e+00   6.086108e-02
  2.884713e+00    6.513098e+00   6.056607e-02
  2.888668e+00    6.175615e+00   5.857585e-02
  2.892622e+00    6.177186e+00   5.819846e-02
  2.896576e+00    5.963622e+00   5.681460e-02
  2.900531e+00    5.676150e+00   5.507578e-02
  2.904485e+00    5.540129e+00   5.406348e-02
  2.908439e+00    5.403684e+00   5.308163e-02
  2.912394e+00    5.386721e+00   5.267520e-02
  2.916348e+00    5.154839e+00   5.121472e-02
  2.920302e+00    4.938158e+00   4.983419e-02
  2.924257e+00    5.009281e+00   4.990319e-02
  2.928211e+00    5.004530e+00   4.960496e-02
  2.932166e+00    4.965920e+00   4.914505e-02
  2.936120e+00    4.785100e+00   4.798365e-02
  2.940074e+00    4.684558e+00   4.720867e-02
  2.944029e+00    4.538168e+00   4.622459e-02
  2.947983e+00    4.332240e+00   4.493168e-02
  2.951937e+00    4.047754e+00   4.321388e-02
  2.955892e+00    3.948060e+00   4.245837e-02
  2.959846e+00    3.963280e+00   4.233654e-02
  2.963800e+00    3.947565e+00   4.204042e-02
  2.967755e+00    4.039508e+00   4.232000e-02
  2.971709e+00    4.199577e+00   4.281842e-02
  2.975663e+00    4.219457e+00   4.255938e-02
  2.979618e+00    4.370780e+00   4.298917e-02
  2.983572e+00    4.422924e+00   4.290533e-02
  2.987526e+00    4.496349e+00   4.289538e-02
  2.991481e+00    4.234336e+00   4.121398e-02
  2.995435e+00    4.472918e+00   4.194437e-02
  2.999389e+00    4.869217e+00   4.333987e-02
  3.003344e+00    4.778245e+00   4.252438e-02
  3.007298e+00    4.773571e+00   4.213543e-02
  3.011253e+00    4.776013e+00   4.177054e-02
  3.015207e+00    4.670767e+00   4.095189e-02
  3.019161e+00    4.440089e+00   3.959809e-02
  3.023116e+00    4.310954e+00   3.871043e-02
  3.027070e+00    4.406286e+00   3.882693e-02
  3.031024e+00    4.303851e+00   3.807730e-02
  3.034979e+00    4.205395e+00   3.736361e-02
  3.038933e+00    4.134320e+00   3.677466e-02
  3.042887e+00    4.241590e+00   3.698111e-02
  3.046842e+00    4.192090e+00   3.650710e-02
  3.050796e+00    4.076450e+00   3.575993e-02
  3.054750e+00    3.843205e+00   3.449430e-02
  3.058705e+00    3.839894e+00   3.425050e-02
  3.062659e+00    3.683214e+00   3.333031e-02
  3.066613e+00    3.654609e+00   3.299345e-02
  3.070568e+00    3.518998e+00   3.218235e-02
  3.074522e+00    3.248393e+00   3.072927e-02
  3.078476e+00    3.193476e+00   3.028920e-02
  3.082431e+00    3.216165e+00   3.022742e-02
  3.086385e+00    3.192153e+00   2.994411e-02
  3.090340e+00    3.022380e+00   2.897121e-02
  3.094294e+00    3.070702e+00   2.904205e-02
  3.098248e+00    2.945953e+00   2.829560e-02
  3.102203e+00    2.873021e+00   2.779981e-02
  3.106157e+00    2.759332e+00   2.709900e-02
  3.110111e+00    2.780120e+00   2.706229e-02
  3.114066e+00    2.763389e+00   2.684536e-02
  3.118020e+00    2.496818e+00   2.539631e-02
  3.121974e+00    2.417756e+00   2.486601e-02
  3.125929e+00    2.360720e+00   2.445692e-02
  3.129883e+00    2.320413e+00   2.410889e-02
  3.133837e+00    2.298494e+00   2.384291e-02
  3.137792e+00    2.242908e+00   2.341816e-02
  3.141746e+00    2.370553e+00   2.392797e-02
  3.145700e+00    2.256778e+00   2.321260e-02
  3.149655e+00    2.107729e+00   2.230357e-02
  3.153609e+00    2.214687e+00   2.266289e-02
  3.157563e+00    2.372709e+00   2.318269e-02
  3.161518e+00    2.423361e+00   2.317155e-02
  3.165472e+00    2.590630e+00   2.370653e-02
  3.169427e+00    2.652766e+00   2.375697e-02
  3.173381e+00    2.796078e+00   2.415611e-02
  3.177335e+00    2.899831e+00   2.438672e-02
  3.181290e+00    2.949258e+00   2.437711e-02
  3.185244e+00    3.001568e+00   2.439527e-02
  3.189198e+00    2.942239e+00   2.395279e-02
  3.193153e+00    2.950996e+00   2.381457e-02
  3.197107e+00    2.878720e+00   2.333822e-02
  3.201061e+00    2.880135e+00   2.318652e-02
  3.205016e+00    2.893324e+00   2.307250e-02
  3.208970e+00    2.823869e+00   2.264651e-02
  3.212924e+00    2.685822e+00   2.193945e-02
  3.216879e+00    2.686002e+00   2.180226e-02
  3.220833e+00    2.692534e+00   2.169573e-02
  3.224787e+00    2.582181e+00   2.110983e-02
  3.228742e+00    2.739124e+00   2.153127e-02
  3.232696e+00    2.886675e+00   2.188566e-02
  3.236650e+00    3.048364e+00   2.228198e-02
  3.240605e+00    3.020717e+00   2.198293e-02
  3.244559e+00    3.084261e+00   2.202499e-02
  3.248514e+00    3.076714e+00   2.182329e-02
  3.252468e+00    3.061559e+00   2.159913e-02
  3.256422e+00    3.060140e+00   2.143637e-02
  3.260377e+00    3.029335e+00   2.117413e-02
  3.264331e+00    3.075506e+00   2.118725e-02
  3.268285e+00    3.111671e+00   2.117169e-02
  3.272240e+00    3.019063e+00   2.071818e-02
  3.276194e+00    3.027117e+00   2.061733e-02
  3.280148e+00    2.993150e+00   2.035461e-02
  3.284103e+00    2.926944e+00   1.997864e-02
  3.288057e+00    2.957024e+00   1.993563e-02
  3.292011e+00    3.009168e+00   1.996996e-02
  3.295966e+00    2.905634e+00   1.949403e-02
  3.299920e+00    2.844717e+00   1.916289e-02
  3.303874e+00    2.819873e+00   1.895796e-02
  3.307829e+00    2.769310e+00   1.867452e-02
  3.311783e+00    2.769935e+00   1.856696e-02
  3.315737e+00    2.752174e+00   1.840074e-02
  3.319692e+00    2.683916e+00   1.806888e-02
  3.323646e+00    2.644844e+00   1.784151e-02
  3.327601e+00    2.602704e+00   1.760488e-02
  3.331555e+00    2.550043e+00   1.733458e-02
  3.335509e+00    2.470981e+00   1.697798e-02
  3.339464e+00    2.438227e+00   1.674214e-02
  3.343418e+00    2.572570e+00   1.698622e-02
  3.347372e+00    2.652891e+00   1.707193e-02
  3.351327e+00    2.739747e+00   1.719157e-02
  3.355281e+00    2.729935e+00   1.701552e-02
  3.359235e+00    2.750374e+00   1.694781e-02
  3.363190e+00    2.726886e+00   1.675696e-02
  3.367144e+00    2.705745e+00   1.657619e-02
  3.371098e+00    2.674387e+00   1.637305e-02
  3.375053e+00    2.688488e+00   1.631528e-02
  3.379007e+00    2.587389e+00   1.591567e-02
  3.382961e+00    2.597713e+00   1.585642e-02
  3.386916e+00    2.557026e+00   1.563252e-02
  3.390870e+00    2.980776e+00   1.648538e-02
  3.394825e+00    3.509304e+00   1.740040e-02
  3.398779e+00    3.800602e+00   1.780246e-02
  3.402733e+00    4.042392e+00   1.811717e-02
  3.406688e+00    4.209300e+00   1.828004e-02
  3.410642e+00    4.319189e+00   1.832946e-02
  3.414596e+00    4.604154e+00   1.854489e-02
  3.418551e+00    4.553207e+00   1.816990e-02
  3.422505e+00    4.431504e+00   1.773236e-02
  3.426459e+00    4.455163e+00   1.761954e-02
  3.430414e+00    4.333753e+00   1.726272e-02
  3.434368e+00    4.032694e+00   1.664351e-02
  3.438322e+00    3.669384e+00   1.587268e-02
  3.442277e+00    3.324148e+00   1.510492e-02
  3.446231e+00    2.949473e+00   1.422521e-02
  3.450185e+00    2.554149e+00   1.323521e-02
  3.454140e+00    2.129653e+00   1.208292e-02
  3.458094e+00    1.585381e+00   1.042331e-02
  3.462048e+00    6.435590e-01   6.698966e-03
  3.466003e+00    0.000000e+00   0.000000e+00
  3.469957e+00    0.000000e+00   0.000000e+00
  3.473912e+00    0.000000e+00   0.000000e+00
  3.477866e+00    0.000000e+00   0.000000e+00
  3.481820e+00    0.000000e+00   0.000000e+00
  3.485775e+00    0.000000e+00   0.000000e+00
  3.489729e+00    0.000000e+00   0.000000e+00
  3.493683e+00    0.000000e+00   0.000000e+00
  3.497638e+00    0.000000e+00   0.000000e+00
  3.501592e+00    0.000000e+00   0.000000e+00
  3.505546e+00    0.000000e+00   0.000000e+00
  3.509501e+00    0.000000e+00   0.000000e+00
  3.513455e+00    0.000000e+00   0.000000e+00
  3.517409e+00    0.000000e+00   0.000000e+00
  3.521364e+00    0.000000e+00   0.000000e+00
  3.525318e+00    0.000000e+00   0.000000e+00
  3.529272e+00    0.000000e+00   0.000000e+00
  3.533227e+00    0.000000e+00   0.000000e+00
  3.537181e+00    0.000000e+00   0.000000e+00
  3.541135e+00    0.000000e+00   0.000000e+00
  3.545090e+00    0.000000e+00   0.000000e+00
  3.549044e+00    0.000000e+00   0.000000e+00
  3.552999e+00    0.000000e+00   0.000000e+00
  3.556953e+00    0.000000e+00   0.000000e+00
  3.560907e+00    0.000000e+00   0.000000e+00
  3.564862e+00    0.000000e+00   0.000000e+00
  3.568816e+00    0.000000e+00   0.000000e+00
  3.572770e+00    0.000000e+00   0.000000e+00
  3.576725e+00    0.000000e+00   0.000000e+00
  3.580679e+00    0.000000e+00   0.000000e+00
  3.584633e+00    0.000000e+00   0.000000e+00
  3.588588e+00    0.000000e+00   0.000000e+00
  3.592542e+00    0.000000e+00   0.000000e+00
  3.596496e+00    0.000000e+00   0.000000e+00
  3.600451e+00    0.000000e+00   0.000000e+00
  3.604405e+00    0.000000e+00   0.000000e+00
  3.608359e+00    0.000000e+00   0.000000e+00
  3.612314e+00    0.000000e+00   0.000000e+00
  3.616268e+00    0.000000e+00   0.000000e+00
  3.620222e+00    0.000000e+00   0.000000e+00
  3.624177e+00    0.000000e+00   0.000000e+00
  3.628131e+00    0.000000e+00   0.000000e+00
  3.632086e+00    0.000000e+00   0.000000e+00
  3.636040e+00    0.000000e+00   0.000000e+00
  3.639994e+00    0.000000e+00   0.000000e+00
  3.643949e+00    0.000000e+00   0.000000e+00
  3.647903e+00    0.000000e+00   0.000000e+00
  3.651857e+00    0.000000e+00   0.000000e+00
  3.655812e+00    0.000000e+00   0.000000e+00
  3.659766e+00    0.000000e+00   0.000000e+00
  3.663720e+00    0.000000e+00   0.000000e+00
  3.667675e+00    0.000000e+00   0.000000e+00
  3.671629e+00    0.000000e+00   0.000000e+00
  3.675583e+00    0.000000e+00   0.000000e+00
  3.679538e+00    0.000000e+00   0.000000e+00
  3.683492e+00    0.000000e+00   0.000000e+00
  3.687446e+00    0.000000e+00   0.000000e+00
  3.691401e+00    0.000000e+00   0.000000e+00
  3.695355e+00    0.000000e+00   0.000000e+00
  3.699309e+00    0.000000e+00   0.000000e+00
  3.703264e+00    0.000000e+00   0.000000e+00
  3.707218e+00    0.000000e+00   0.000000e+00
  3.711173e+00    0.000000e+00   0.000000e+00
  3.715127e+00    0.000000e+00   0.000000e+00
  3.719081e+00    0.000000e+00   0.000000e+00
  3.723036e+00    0.000000e+00   0.000000e+00
  3.726990e+00    0.000000e+00   0.000000e+00
  3.730944e+00    0.000000e+00   0.000000e+00
  3.734899e+00    0.000000e+00   0.000000e+00
  3.738853e+00    0.000000e+00   0.000000e+00
  3.742807e+00    0.000000e+00   0.000000e+00
  3.746762e+00    0.000000e+00   0.000000e+00
  3.750716e+00    0.000000e+00   0.000000e+00
  3.754670e+00    0.000000e+00   0.000000e+00
  3.758625e+00    0.000000e+00   0.000000e+00
  3.762579e+00    0.000000e+00   0.000000e+00
  3.766533e+00    0.000000e+00   0.000000e+00
  3.770488e+00    0.000000e+00   0.000000e+00
  3.774442e+00    0.000000e+00   0.000000e+00
  3.778396e+00    0.000000e+00   0.000000e+00
  3.782351e+00    0.000000e+00   0.000000e+00
  3.786305e+00    0.000000e+00   0.000000e+00
  3.790260e+00    0.000000e+00   0.000000e+00
  3.794214e+00    0.000000e+00   0.000000e+00
  3.798168e+00    0.000000e+00   0.000000e+00
  3.802123e+00    0.000000e+00   0.000000e+00
  3.806077e+00    0.000000e+00   0.000000e+00
  3.810031e+00    0.000000e+00   0.000000e+00
  3.813986e+00    0.000000e+00   0.000000e+00
  3.817940e+00    0.000000e+00   0.000000e+00
  3.821894e+00    0.000000e+00   0.000000e+00
  3.825849e+00    0.000000e+00   0.000000e+00
  3.829803e+00    0.000000e+00   0.000000e+00
  3.833757e+00    0.000000e+00   0.000000e+00
  3.837712e+00    0.000000e+00   0.000000e+00
  3.841666e+00    0.000000e+00   0.000000e+00
  3.845620e+00    0.000000e+00   0.000000e+00
  3.849575e+00    0.000000e+00   0.000000e+00
  3.853529e+00    0.000000e+00   0.000000e+00
  3.857483e+00    0.000000e+00   0.000000e+00
  3.861438e+00    0.000000e+00   0.000000e+00
  3.865392e+00    0.000000e+00   0.000000e+00
  3.869347e+00    0.000000e+00   0.000000e+00
  3.873301e+00    0.000000e+00   0.000000e+00
  3.877255e+00    0.000000e+00   0.000000e+00
  3.881210e+00    0.000000e+00   0.000000e+00
  3.885164e+00    0.000000e+00   0.000000e+00
  3.889118e+00    0.000000e+00   0.000000e+00
  3.893073e+00    0.000000e+00   0.000000e+00
  3.897027e+00    0.000000e+00   0.000000e+00
  3.900981e+00    0.000000e+00   0.000000e+00
  3.904936e+00    0.000000e+00   0.000000e+00
  3.908890e+00    0.000000e+00   0.000000e+00
  3.912844e+00    0.000000e+00   0.000000e+00
  3.916799e+00    0.000000e+00   0.000000e+00
  3.920753e+00    0.000000e+00   0.000000e+00
  3.924707e+00    0.000000e+00   0.000000e+00
  3.928662e+00    0.000000e+00   0.000000e+00
  3.932616e+00    0.000000e+00   0.000000e+00
  3.936571e+00    0.000000e+00   0.000000e+00
  3.940525e+00    0.000000e+00   0.000000e+00
  3.944479e+00    0.000000e+00   0.000000e+00
  3.948434e+00    0.000000e+00   0.000000e+00
  3.952388e+00    0.000000e+00   0.000000e+00
  3.956342e+00    0.000000e+00   0.000000e+00
  3.960297e+00    0.000000e+00   0.000000e+00
  3.964251e+00    0.000000e+00   0.000000e+00
  3.968205e+00    0.000000e+00   0.000000e+00
  3.972160e+00    0.000000e+00   0.000000e+00
